"FR Polycarbonate panel, 3 layers, 16mm, 175kg/m3"
"Number of HRR Curves","02"
"Heat Flux",50
"Number of HRR Data Pairs",232
"sec,kw/m2"
0,18.20
5,96.40
10,202.30
15,283.20
20,331.90
25,375.80
30,394.50
35,376.50
40,355.70
45,363.00
50,375.10
55,418.30
60,474.40
65,523.50
70,516.70
75,467.30
80,417.30
85,391.50
90,370.50
95,355.70
100,346.80
105,323.30
110,276.80
115,228.20
120,184.90
125,157.00
130,142.40
135,131.10
140,119.30
145,109.40
150,102.50
155,98.30
160,97.30
165,95.50
170,94.00
175,93.30
180,90.70
185,88.00
190,87.80
195,85.80
200,83.10
205,82.20
210,82.90
215,81.70
220,80.60
225,80.00
230,77.20
235,74.40
240,72.80
245,71.00
250,69.90
255,68.00
260,66.00
265,63.40
270,62.60
275,63.30
280,62.60
285,59.60
290,59.50
295,58.30
300,56.80
305,56.40
310,56.00
315,55.60
320,55.00
325,54.30
330,53.70
335,53.40
340,52.80
345,51.30
350,51.00
355,50.80
360,50.20
365,50.10
370,49.00
375,48.90
380,49.00
385,49.10
390,48.80
395,47.20
400,46.70
405,46.00
410,45.30
415,45.00
420,44.80
425,44.40
430,43.60
435,43.50
440,43.60
445,43.50
450,42.70
455,42.70
460,42.10
465,41.70
470,41.10
475,40.60
480,40.70
485,40.10
490,39.60
495,39.30
500,38.50
505,38.60
510,38.60
515,38.10
520,39.30
525,38.20
530,36.40
535,36.50
540,36.40
545,36.00
550,35.80
555,35.00
560,34.90
565,34.70
570,34.60
575,33.30
580,33.30
585,33.30
590,32.50
595,32.00
600,31.80
605,31.80
610,31.00
615,30.00
620,29.10
625,28.00
630,26.50
635,25.80
640,25.90
645,25.10
650,24.20
655,23.80
660,23.10
665,22.60
670,22.50
675,21.80
680,21.40
685,21.00
690,20.60
695,20.20
700,19.80
705,19.70
710,19.60
715,20.20
720,19.50
725,18.90
730,18.60
735,18.00
740,18.20
745,17.70
750,17.10
755,17.20
760,16.50
765,16.30
770,16.20
775,16.10
780,15.90
785,15.90
790,15.40
795,15.30
800,15.10
805,14.90
810,14.70
815,14.60
820,14.80
825,14.40
830,13.80
835,13.80
840,13.60
845,13.40
850,13.10
855,13.00
860,12.70
865,12.50
870,12.40
875,11.90
880,12.40
885,12.00
890,12.00
895,12.20
900,12.00
905,11.30
910,10.90
915,10.80
920,10.50
925,10.60
930,10.60
935,10.10
940, 9.90
945,10.00
950, 9.70
955,8.90
960,8.90
965,9.00
970,8.60
975,8.20
980,8.00
985,8.40
990,8.10
995,8.00
1000,7.80
1005,7.90
1010,7.50
1015,7.10
1020,6.80
1025,6.80
1030,6.90
1035,6.40
1040,6.10
1045,5.90
1050,6.00
1055,5.80
1060,5.70
1065,5.80
1070,5.70
1075,5.30
1080,5.50
1085,5.20
1090,5.00
1095,4.90
1100,4.80
1105,4.60
1110,4.40
1115,4.80
1120,4.60
1125,4.30
1130,3.90
1135,3.70
1140,4.40
1145,4.50
1150,3.70
1155,3.50
"Heat Flux",40
"Number of HRR Data Pairs",239
"sec,kw/m2"
0,64.70
5,160.80
10,248.50
15,298.60
20,348.60
25,379.70
30,398.30
35,406.70
40,413.00
45,440.80
50,474.20
55,470.20
60,434.80
65,377.20
70,322.60
75,294.60
80,274.80
85,250.80
90,210.60
95,165.90
100,125.10
105,98.30
110,84.00
115,76.50
120,73.10
125,70.60
130,67.50
135,63.20
140,59.30
145,56.20
150,54.40
155,53.20
160,51.20
165,50.20
170,49.00
175,47.90
180,47.50
185,46.20
190,45.10
195,44.70
200,44.20
205,45.00
210,44.60
215,44.60
220,44.50
225,44.60
230,44.40
235,43.50
240,43.10
245,43.20
250,42.50
255,41.90
260,42.10
265,41.90
270,41.90
275,42.00
280,41.60
285,41.30
290,40.80
295,40.30
300,40.80
305,41.00
310,40.20
315,39.30
320,38.80
325,37.20
330,36.30
335,36.10
340,34.60
345,34.40
350,34.10
355,32.90
360,31.40
365,30.50
370,29.90
375,28.80
380,28.80
385,27.70
390,27.20
395,27.20
400,26.60
405,26.70
410,26.80
415,26.00
420,25.70
425,25.40
430,25.60
435,25.10
440,25.10
445,24.50
450,24.20
455,24.50
460,24.10
465,24.00
470,23.80
475,23.40
480,23.10
485,22.70
490,22.50
495,22.10
500,21.70
505,21.60
510,21.40
515,21.10
520,21.20
525,21.60
530,21.20
535,20.40
540,20.60
545,20.10
550,20.00
555,20.00
560,19.40
565,19.20
570,19.40
575,19.20
580,18.80
585,18.40
590,17.70
595,18.00
600,18.00
605,17.50
610,17.40
615,17.30
620,17.00
625,16.50
630,16.60
635,16.40
640,15.90
645,16.10
650,15.60
655,15.20
660,15.10
665,14.90
670,14.70
675,14.50
680,14.10
685,13.70
690,13.70
695,13.20
700,13.10
705,13.30
710,12.70
715,12.90
720,12.90
725,12.30
730,12.00
735,11.70
740,11.60
745,11.20
750,11.30
755,11.00
760,10.80
765,10.80
770,10.40
775,10.00
780, 9.60
785, 9.60
790,9.20
795,9.00
800,9.20
805,8.60
810,8.30
815,8.80
820,8.10
825,7.70
830,7.40
835,7.60
840,8.00
845,7.40
850,7.40
855,6.90
860,6.50
865,6.70
870,6.40
875,6.50
880,6.20
885,6.40
890,6.40
895,6.10
900,5.80
905,5.80
910,5.60
915,5.20
920,5.40
925,5.90
930,5.80
935,5.80
940,5.10
945,5.10
950,5.50
955,5.00
960,4.50
965,4.40
970,5.10
975,4.60
980,4.60
985,4.80
990,4.30
995,4.60
1000,4.30
1005,3.70
1010,4.00
1015,3.90
1020,3.70
1025,3.80
1030,3.00
1035,2.70
1040,2.70
1045,3.40
1050,3.20
1055,2.70
1060,3.10
1065,2.50
1070,2.20
1075,2.30
1080,2.20
1085,2.20
1090,2.00
1095,1.60
1100,1.80
1105,1.60
1110,1.80
1115,1.40
1120,1.20
1125,1.50
1130,1.00
1135,0.80
1140,0.70
1145,0.70
1150,0.90
1155,0.90
1160,0.70
1165,0.80
1170,0.80
1175,0.30
1180,0.50
1185,0.90
1190,0.30
"Ignition Data"
"Number of Pairs",2
"flux kw/m2,ignition time sec, peak hrr kw/m2"
40,88,474
50,64,524
"Flame Spread Parameter",0
"Min Surface Temp For Spread",0
"Effective Heat of Combustion",0